#WAVELENGTH FLUX
1000.616 3.274392157793478e-16
1001.232 3.2485822297958985e-16
1001.848 3.2134338005773776e-16
1002.464 3.1692558071548546e-16
1003.08 3.116408024282236e-16
1003.696 3.055148551239497e-16
1004.312 2.9876829636918853e-16
1004.856 2.924190540817841e-16
1004.928 2.9154855560113847e-16
1005.0 2.9067062698970563e-16
1005.144 2.889057753979924e-16
1005.432 2.8505579447168684e-16
1006.008 2.771540459092765e-16
1006.584 2.685968815995337e-16
1006.624 2.67988392994015e-16
1007.16 2.59600948513832e-16
1007.468 2.547729277402243e-16
1008.312 2.416047806877624e-16
1008.734 2.353114599110194e-16
1009.156 2.2947411452890026e-16
1009.578 2.240059293290495e-16
1010.0 2.1885567551498714e-16
1010.844 2.090725396253593e-16
1011.688 1.9984275294961897e-16
1012.532 1.9082687582864647e-16
1013.44 1.8131239782590252e-16
1014.22 1.7342003469185494e-16
1015.0 1.6567197251888472e-16
1016.56 1.5078942055215943e-16
1018.12 1.3662602703373034e-16
1019.36 1.2540926696169153e-16
1019.569 1.2349620381374975e-16
1019.68 1.224774937768756e-16
1020.0 1.19509352057154e-16
1020.104 1.1852935691227623e-16
1020.64 1.134588792392973e-16
1021.175 1.0824019001008981e-16
1021.711 1.0279468626211574e-16
1021.979 9.993486802808096e-17
1022.247 9.697493855817677e-17
1022.514 9.387618296040682e-17
1022.782 9.058659031926083e-17
1022.927 8.871771689652702e-17
1023.05 8.709638414686092e-17
1023.122 8.611052310925642e-17
1023.318 8.336958696781655e-17
1023.513 8.049686376978297e-17
1023.708 7.741805220728387e-17
1023.903 7.411047082844259e-17
1024.001 7.235891526024326e-17
1024.098 7.050138256344778e-17
1024.196 6.85535151186608e-17
1024.294 6.647816227194636e-17
1024.391 6.428510051118237e-17
1024.489 6.19422629561294e-17
1024.587 5.942071120266894e-17
1024.662 5.732424114213831e-17
1024.684 5.669033366813716e-17
1024.706 5.604625864674303e-17
1024.75 5.472134900953397e-17
1024.793 5.3342864218754176e-17
1024.837 5.188890494155722e-17
1024.88 5.035751588036752e-17
1024.924 4.8758473523062966e-17
1024.967 4.706401264407039e-17
1025.011 4.526201039842122e-17
1025.054 4.3353639964660833e-17
1025.098 4.1321303664609035e-17
1025.141 3.914935911766124e-17
1025.164 3.795025332646462e-17
1025.185 3.681590699097102e-17
1025.205 3.547476838388469e-17
1025.225 3.4040322976491965e-17
1025.246 3.252101765431932e-17
1025.266 3.066802124789919e-17
1025.287 2.804143090867889e-17
1025.307 2.4724346783620323e-17
1025.328 2.0791656769867985e-17
1025.348 1.7227696772917427e-17
1025.369 1.4280828690818077e-17
1025.389 1.1937560970298474e-17
1025.41 1.0305513189918222e-17
1025.43 9.507829990986983e-18
1025.439 9.292786363625334e-18
1025.447 9.118725773447721e-18
1025.451 9.048530590484608e-18
1025.455 8.985687326405655e-18
1025.471 8.829967427486927e-18
1025.503 8.755275060099993e-18
1025.535 8.755314166051505e-18
1025.556 8.757543205287659e-18
1025.561 8.75809068860882e-18
1025.568 8.758755489784516e-18
1025.579 8.760006880232883e-18
1025.602 8.762470555178106e-18
1025.611 8.763448203965893e-18
1025.642 8.76681131579588e-18
1025.657 8.768414659807852e-18
1025.673 8.770174427625869e-18
1025.689 8.771895089492374e-18
1025.704 8.773537539455856e-18
1025.72 8.775258201322362e-18
1025.736 8.776978863188867e-18
1025.751 8.778621313152349e-18
1025.767 8.780341975018854e-18
1025.798 8.783705086848841e-18
1025.829 8.78706819867883e-18
1025.86 8.790431310508817e-18
1025.891 8.793794422338805e-18
1025.922 8.79762680558693e-18
1025.953 8.820112727706034e-18
1025.975 8.922922274229723e-18
1025.984 9.02510612552923e-18
1025.995 9.205306350094145e-18
1026.015 9.725415505196875e-18
1026.035 1.066317622244225e-17
1026.055 1.2376212428402785e-17
1026.075 1.4719714784631455e-17
1026.095 1.756623699515234e-17
1026.115 2.1030359497894083e-17
1026.135 2.4624548395363017e-17
1026.155 2.7642237355649663e-17
1026.175 3.0075370552742654e-17
1026.195 3.187295382587102e-17
1026.215 3.3398946265752125e-17
1026.225 3.4127490142411064e-17
1026.235 3.483648104331426e-17
1026.245 3.552607539226776e-17
1026.265 3.680749921139605e-17
1026.285 3.793949918979896e-17
1026.305 3.904236523432582e-17
1026.345 4.1154321251655e-17
1026.385 4.3151853254861575e-17
1026.425 4.5046145546077835e-17
1026.465 4.683798024433401e-17
1026.505 4.8548474563446296e-17
1026.545 5.0168243075051946e-17
1026.585 5.171527451684623e-17
1026.596 5.213136184092842e-17
1026.665 5.463570697572382e-17
1026.734 5.696251109065708e-17
1026.803 5.916691357735941e-17
1026.872 6.124187536455872e-17
1026.941 6.322337392764559e-17
1027.01 6.510358807631772e-17
1027.079 6.691888634548078e-17
1027.217 7.034691405497742e-17
1027.355 7.352974744849706e-17
1027.493 7.650531929900585e-17
1027.53 7.727336018669139e-17
1027.631 7.932564052201403e-17
1027.732 8.129501624013234e-17
1027.934 8.506561208486959e-17
1028.136 8.861252188696114e-17
1028.338 9.203781217985198e-17
1028.54 9.531410879748407e-17
1028.742 9.845940047755268e-17
1028.944 1.0142324054260801e-16
1029.146 1.0422361773034535e-16
1029.371 1.0720583759261108e-16
1029.458 1.0833873700789875e-16
1029.55 1.095342059456048e-16
1029.729 1.1189307694077748e-16
1030.0 1.1563434332188112e-16
1030.271 1.1968728413653127e-16
1030.542 1.2399675999309674e-16
1031.084 1.3294302852037883e-16
1031.626 1.4194795597492814e-16
1032.168 1.5065646031702038e-16
1032.71 1.5900714520278258e-16
1033.742 1.7542304152827312e-16
1033.794 1.7624817710516542e-16
1033.846 1.7707683221769376e-16
1033.95 1.7874509210917365e-16
1034.158 1.8208317613019386e-16
1034.574 1.888563269319828e-16
1035.406 2.0285703969212413e-16
1035.553 2.054133957424298e-16
1036.238 2.177579714560598e-16
1036.581 2.2378028798882827e-16
1036.923 2.2997975448194374e-16
1037.265 2.363817898038887e-16
1037.608 2.43404827635836e-16
1037.95 2.507125567947869e-16
1037.956 2.5082400875659465e-16
1038.293 2.5775201912636907e-16
1038.467 2.6135250408203135e-16
1038.978 2.717163633516047e-16
1039.489 2.8328703228482247e-16
1040.0 2.959522768008466e-16
1040.511 3.0831914290683816e-16
1041.022 3.2131757012974016e-16
1041.533 3.349475584695526e-16
1042.044 3.4890681892109177e-16
1042.555 3.6363333814128623e-16
1043.066 3.7857767751139964e-16
1043.176 3.818457618792143e-16
1044.088 4.0683876654971853e-16
1044.544 4.1827725736682743e-16
1044.772 4.240180110487132e-16
1045.0 4.3090456910988547e-16
1045.228 4.3885480905217006e-16
1045.456 4.470083999423144e-16
1045.684 4.552910404724466e-16
1045.912 4.623809494814785e-16
1046.14 4.695803551547426e-16
1046.368 4.768501515407274e-16
1046.596 4.845735769642455e-16
1046.824 4.937947603306532e-16
1047.052 5.032857747624903e-16
1047.28 5.129566765712801e-16
1047.508 5.228778564697435e-16
1047.736 5.330610462433338e-16
1047.964 5.438151829089917e-16
1048.192 5.562665178702481e-16
1048.42 5.690307004435963e-16
1048.648 5.820256081308622e-16
1048.876 5.928188507480317e-16
1049.104 6.023255075604734e-16
1049.12 6.029942193313198e-16
1049.56 6.214835132059491e-16
1050.0 6.399884494611831e-16
1050.44 6.5864980952246305e-16
1050.88 6.784999905096921e-16
1051.32 7.007825616809353e-16
1051.54 7.121584829756259e-16
1051.65 7.17828845944791e-16
1051.76 7.235539572460722e-16
1051.87 7.271751683560356e-16
1051.98 7.297248763945843e-16
1052.09 7.322589420525284e-16
1052.2 7.347656335444145e-16
1052.31 7.372253978944868e-16
1052.42 7.396421456978965e-16
1052.53 7.420119663594924e-16
1052.64 7.443270386889722e-16
1052.86 7.474398724292863e-16
1053.08 7.484214318122245e-16
1053.3 7.490862329879197e-16
1053.74 7.492270144133611e-16
1054.18 7.486247827600842e-16
1054.24 7.484761801443406e-16
1054.62 7.467594288729865e-16
1055.0 7.449410021277025e-16
1055.38 7.4576222710944365e-16
1055.76 7.478465743250058e-16
1056.14 7.489102562061181e-16
1056.33 7.492387461988145e-16
1056.52 7.494460077418254e-16
1056.615 7.495085772642438e-16
1056.71 7.485583026425147e-16
1056.805 7.454650218779564e-16
1056.9 7.425007907533859e-16
1056.995 7.394974536773041e-16
1057.09 7.364471894594083e-16
1057.185 7.333617298851522e-16
1057.28 7.302332537642336e-16
1057.47 7.237964141454434e-16
1057.85 7.09972460286134e-16
1058.04 7.028708194916485e-16
1058.135 6.992769825477432e-16
1058.23 6.980412344799804e-16
1058.325 6.973881650897386e-16
1058.42 6.968054864122175e-16
1058.515 6.961993441637895e-16
1058.61 6.955697383444546e-16
1058.8 6.942518677785176e-16
1058.895 6.93497122914346e-16
1058.99 6.932429342295213e-16
1059.085 6.958200164341281e-16
1059.18 6.984049198290371e-16
1059.37 7.035708160237042e-16
1059.5 7.071763847530629e-16
1059.75 7.14164618288165e-16
1059.875 7.176137632114778e-16
1060.0 7.246176391271845e-16
1060.125 7.318991672986228e-16
1060.25 7.393214768955024e-16
1060.375 7.468532831566141e-16
1060.5 7.558241884333483e-16
1060.625 7.673252487728756e-16
1060.75 7.791860838663086e-16
1060.875 7.913128394300196e-16
1061.0 8.051524356699336e-16
1061.125 8.215730247096056e-16
1061.25 8.385371864752871e-16
1061.375 8.563343050081632e-16
1061.5 8.771738665686328e-16
1061.625 8.986508551387395e-16
1061.75 9.215786745099223e-16
1061.875 9.461293908688316e-16
1062.0 9.714270309016103e-16
1062.25 1.0254636347001783e-15
1062.5 1.0824058106960494e-15
1062.75 1.1417686450904812e-15
1063.0 1.2027113599259772e-15
1063.25 1.2650736208013399e-15
1063.5 1.3303414538740058e-15
1063.75 1.3988159749706134e-15
1064.0 1.4704111509978374e-15
1064.25 1.5459521175325701e-15
1064.5 1.623870725919201e-15
1064.75 1.7023837447688063e-15
1064.875 1.7406841136791534e-15
1065.0 1.7789844825895e-15
1065.125 1.812846326003294e-15
1065.25 1.8462232556183447e-15
1065.312 1.8628393744155742e-15
1065.375 1.8795258839255245e-15
1065.437 1.894131956815063e-15
1065.5 1.903267107088146e-15
1065.562 1.9124491845030424e-15
1065.625 1.9216664572742988e-15
1065.687 1.930922835997067e-15
1065.75 1.940276979598614e-15
1065.812 1.9489311266681052e-15
1065.875 1.9575852737375965e-15
1065.937 1.966270705568297e-15
1066.0 1.9749913327553578e-15
1066.125 1.992530352008258e-15
1066.25 2.010206242091449e-15
1066.375 2.0280190030049293e-15
1066.5 2.039926765240176e-15
1066.625 2.0481859421994016e-15
1066.75 2.0555691458447696e-15
1066.875 2.062913243538626e-15
1067.125 2.0765299358549247e-15
1067.5 2.0940963292738832e-15
1067.688 2.1023046684961434e-15
1067.875 2.108276147291947e-15
1068.063 2.106704088041185e-15
1068.25 2.1032549431178725e-15
1068.344 2.101315287922903e-15
1068.438 2.096814192903931e-15
1068.531 2.086294691947342e-15
1068.625 2.075775190990753e-15
1068.719 2.0651422827747806e-15
1068.813 2.0544155202751807e-15
1068.906 2.0382334775397288e-15
1069.0 2.019634687000867e-15
1069.094 2.0008716514656576e-15
1069.188 1.9818974437922857e-15
1069.375 1.9423730585996294e-15
1069.5 1.912468737478798e-15
1069.563 1.8974872474547487e-15
1069.75 1.8526248998807747e-15
1070.0 1.7938291017832595e-15
1070.25 1.7408014315336877e-15
1070.5 1.6917391047673806e-15
1070.625 1.6707626723766208e-15
1070.75 1.6496884751070824e-15
1070.875 1.632544425964448e-15
1071.0 1.6160026084750904e-15
1071.25 1.5877290055322879e-15
1071.499 1.5636280076157607e-15
1071.749 1.542890121529221e-15
1071.999 1.5227427353105046e-15
1072.499 1.4780876492795416e-15
1072.749 1.4528721317449371e-15
1072.999 1.427617508258821e-15
1073.249 1.3999969747062602e-15
1073.499 1.3696429351430467e-15
1073.749 1.3398520212815985e-15
1073.998 1.3134594146064984e-15
1074.248 1.2900114860802128e-15
1074.373 1.278310985387977e-15
1074.498 1.2672400905150761e-15
1074.623 1.2605842575678216e-15
1074.748 1.2581401355983539e-15
1074.873 1.2556725500579792e-15
1074.99 1.2533418353478948e-15
1074.996 1.2532206068982091e-15
1074.998 1.2531815009466977e-15
1075.0 1.2531423949951862e-15
1075.01 1.2529429546424777e-15
1075.03 1.2525401633419094e-15
1075.07 1.2517502231213775e-15
1075.15 1.2508234120705552e-15
1075.23 1.249845763282768e-15
1075.27 1.2493021905567585e-15
1075.31 1.2487547072355979e-15
1075.35 1.2511362596826471e-15
1075.39 1.2547848449586686e-15
1075.43 1.2584451620201435e-15
1075.47 1.2621211214622228e-15
1075.51 1.265812723284907e-15
1075.55 1.2695160568930444e-15
1075.59 1.2732311222866354e-15
1075.63 1.2769618300608309e-15
1075.67 1.2806964484301776e-15
1075.75 1.2882087017155336e-15
1075.91 1.3034091850680471e-15
1075.99 1.3110935045400536e-15
1076.03 1.31527002016148e-15
1076.07 1.3195716748277433e-15
1076.11 1.3264230375325551e-15
1076.15 1.3348503700832798e-15
1076.19 1.3433363615612718e-15
1076.23 1.3518810119665308e-15
1076.27 1.3604882318942085e-15
1076.35 1.3778864697216674e-15
1076.43 1.3955506280194046e-15
1076.51 1.4134807067874197e-15
1076.59 1.431676706025713e-15
1076.67 1.456825743442748e-15
1076.75 1.4827725422706174e-15
1076.83 1.508989172163916e-15
1076.91 1.535698537046259e-15
1076.99 1.562896726322496e-15
1077.07 1.5939976895595786e-15
1077.15 1.6275545065515827e-15
1077.23 1.6618504260271536e-15
1077.31 1.6986804111606687e-15
1077.39 1.7384394320623942e-15
1077.44 1.7637488038806262e-15
1077.47 1.779109621634337e-15
1077.5 1.7946268631940938e-15
1077.56 1.827483683654042e-15
1077.68 1.897545906382016e-15
1077.8 1.9733606145773288e-15
1077.92 2.0542825600400416e-15
1078.04 2.1401357659883525e-15
1078.16 2.233771056287449e-15
1078.28 2.3339839676307764e-15
1078.4 2.4407158410910683e-15
1078.52 2.554435948086462e-15
1078.64 2.6762431658544307e-15
1078.76 2.8061844215367884e-15
1078.88 2.943383741819677e-15
1079.0 3.0895930733308114e-15
1079.12 3.2436509693103005e-15
1079.24 3.404876986201845e-15
1079.36 3.574811898494996e-15
1079.48 3.752000964793528e-15
1079.6 3.9384776945760374e-15
1079.72 4.130839870061025e-15
1079.84 4.329146150175757e-15
1079.92 4.463631517423749e-15
1079.96 4.532418886132448e-15
1080.0 4.60179284411382e-15
1080.08 4.742926223118764e-15
1080.24 5.029729271503984e-15
1080.4 5.325213841124754e-15
1080.56 5.6271117867934056e-15
1080.88 6.236929994663479e-15
1081.2 6.849954890557495e-15
1081.52 7.447572041555985e-15
1081.84 8.01996585382957e-15
1082.16 8.571086028480906e-15
1082.48 9.094753825171182e-15
1082.523 9.16166410820733e-15
1082.8 9.579589412010554e-15
1083.077 9.976553925803624e-15
1083.354 1.034790404135667e-14
1083.631 1.0708851973807662e-14
1083.908 1.1048135209121293e-14
1084.185 1.1368686693660923e-14
1084.462 1.1671444970262829e-14
1084.739 1.195930387933886e-14
1085.293 1.256008861240978e-14
1086.264 1.356049706397655e-14
1086.401 1.3701122065611845e-14
1086.538 1.3840300147041215e-14
1086.812 1.4113455218348927e-14
1087.36 1.4633720797257704e-14
1087.908 1.5089109602608928e-14
1088.456 1.549475563763755e-14
1089.004 1.5826843377873065e-14
1089.104 1.5885306775382732e-14
1089.552 1.613437258055937e-14
1090.0 1.635129329359357e-14
1090.448 1.6562504537707092e-14
1091.344 1.698758623063692e-14
1092.24 1.743550579924945e-14
1093.136 1.7875565071608175e-14
1093.584 1.8085915984788444e-14
1094.032 1.8289384250502693e-14
1094.48 1.8466064939431576e-14
1094.856 1.8571259948997464e-14
1094.928 1.8590812924753207e-14
1095.0 1.861013126479988e-14
1095.144 1.8648181355620554e-14
1095.432 1.868814763806529e-14
1096.008 1.8741292626169396e-14
1096.584 1.874453842014485e-14
1096.622 1.874379540706613e-14
1097.159 1.8719432399274478e-14
1097.467 1.8690728630865046e-14
1097.889 1.8688812439240986e-14
1098.311 1.8678488468041954e-14
1098.733 1.8690298465398422e-14
1099.156 1.8785834304940974e-14
1099.578 1.8876403688641572e-14
1100.0 1.8961928404597187e-14
1100.422 1.9100246155093303e-14
1100.844 1.9250491220800422e-14
1101.689 1.9522825067126394e-14
1101.755 1.9540813804821675e-14
1102.533 1.970443310594572e-14
1102.567 1.971045542247849e-14
1103.378 1.9800516428809437e-14
1104.189 1.9825466025873765e-14
1105.0 1.9800868382373042e-14
1106.622 1.9729617338719118e-14
1107.433 1.9694656618067853e-14
1108.245 1.9605103989106556e-14
1108.65 1.954933890225118e-14
1109.056 1.9461937100623012e-14
1109.461 1.9340395803325324e-14
1109.734 1.9256669961139236e-14
1109.867 1.921510033468253e-14
1110.0 1.9173100542759195e-14
1110.266 1.906876586412656e-14
1110.799 1.8821420720816426e-14
1111.331 1.854294724010315e-14
1111.863 1.824296548605856e-14
1112.396 1.79202631741858e-14
1113.461 1.7317718673296862e-14
1114.051 1.7033848571275002e-14
1114.526 1.680069888836354e-14
1115.0 1.6569504503027648e-14
1115.474 1.6401779076994894e-14
1115.949 1.6242265900779553e-14
1116.898 1.5963557784357212e-14
1117.847 1.5689034004746596e-14
1118.321 1.555067714829897e-14
1118.795 1.5409113603827398e-14
1119.27 1.530055548243152e-14
1119.489 1.5268566814095127e-14
1119.744 1.5230282087565386e-14
1120.0 1.5200444246562123e-14
1120.327 1.5163371804529236e-14
1120.511 1.514182442524641e-14
1120.696 1.5120198834060557e-14
1121.065 1.510201456660772e-14
1121.804 1.505911533779962e-14
1122.543 1.505672987475742e-14
1123.282 1.5057629311642185e-14
1124.173 1.5067444905471566e-14
1124.76 1.506466838291425e-14
1125.348 1.5023841769536263e-14
1125.936 1.491254623153458e-14
1126.523 1.478259715466192e-14
1127.111 1.4620894045161938e-14
1127.698 1.445442000957755e-14
1127.747 1.443807372184575e-14
1128.873 1.4056634270802742e-14
1131.8703678707946 2.963296654497766e-15
1131.8803339386395 6.6671809810210994e-15
1131.8903000064843 9.630024642298674e-15
1131.900266074329 1.4817376384028412e-14
1131.9102321421738 1.629598809816139e-14
1131.9201982100185 1.7034004516972272e-14
1131.9301642778635 1.480764787181602e-14
1131.9401303457082 1.554522383349433e-14
1131.950096413553 1.2576771967072984e-14
1131.9600624813977 1.2575407735808137e-14
1131.9700285492424 1.3312421945235829e-14
1131.9799946170874 1.4052427028000275e-14
1131.9899606849322 1.1828100551412e-14
1131.999926752777 1.330468480748243e-14
1132.0098928206216 1.330317353129794e-14
1132.0198588884664 1.2558552288377548e-14
1132.0298249563114 1.5522042235793874e-14
1132.039791024156 1.5523155406493155e-14
1132.0497570920008 1.3303844211985574e-14
1132.0597231598456 1.626520980077019e-14
1132.0696892276903 1.7006618755941416e-14
1132.0796552955353 1.5518377124231104e-14
1132.08962136338 1.6253560387240014e-14
1132.0995874312248 1.6986641483880423e-14
1132.1095534990695 1.3281071307682168e-14
1132.1195195669143 1.4005186221762713e-14
1132.1294856347592 1.3629738867892246e-14
1132.139451702604 1.4722068999133013e-14
1132.1494177704487 1.581856704069404e-14
1132.1593838382935 1.912629803884139e-14
1132.1693499061382 1.5796141758712188e-14
1132.1793159739832 1.357480420728489e-14
1132.189282041828 1.2834938207330382e-14
1132.1992481096727 1.0253740825844461e-14
1132.2092141775174 7.67553025193715e-15
1132.2191802453622 9.140419693511428e-15
1132.2291463132071 1.133618498144794e-14
1132.2391123810519 1.0596564790454725e-14
1132.2490784488966 1.1698720842696822e-14
1132.2590445167414 1.4628547667910192e-14
1132.269010584586 1.3159592298782505e-14
1132.278976652431 1.3522338563015485e-14
1132.2889427202758 1.351932346453644e-14
1132.2989087881206 1.4247441117512528e-14
1132.3088748559653 1.2045005021599914e-14
1132.31884092381 1.2773058300072012e-14
1132.328806991655 1.2400224889876772e-14
1132.3387730594998 1.27607751364907e-14
1132.3487391273445 1.1657302117422213e-14
1132.3587051951893 1.2020101236511101e-14
1132.368671263034 1.0184292086279313e-14
1132.378637330879 8.716880519401292e-15
1132.3886033987237 8.71699232775033e-15
1132.3985694665685 1.0905685483500332e-14
1132.4085355344132 1.0534900198971551e-14
1132.418501602258 1.2724797581462664e-14
1132.428467670103 1.3083806228112588e-14
1132.4384337379477 1.4892146353974802e-14
1132.4483998057924 1.3786637237107708e-14
1132.4583658736371 1.5595179634437727e-14
1132.468331941482 1.4856357348480828e-14
1132.4782980093269 1.448902524787141e-14
1132.4882640771716 1.2664963682288388e-14
1132.4982301450164 1.3753892637432751e-14
1132.508196212861 1.3019398181616552e-14
1132.5181622807058 1.2292871595328583e-14
1132.5281283485508 1.3011759299685033e-14
1132.5380944163956 1.1559972102552063e-14
1132.5480604842403 1.0826565575853317e-14
1132.558026552085 9.372478853675141e-15
1132.5679926199298 9.367366671025284e-15
1132.5779586877748 9.002713396814854e-15
1132.5879247556195 9.719314789840075e-15
1132.5978908234642 8.62410000319414e-15
