#WAVELENGTH FLUX
950.008 1.8607901253936865e-15
950.024 1.9143458546197126e-15
950.056 2.02102833101038e-15
950.12 2.2271488492300762e-15
950.175 2.396462706582945e-15
950.184 2.4240221228890436e-15
950.193 2.4515198730238183e-15
950.211 2.5063786352613013e-15
950.247 2.6151309500981506e-15
950.319 2.829324374485535e-15
950.333 2.8705334637573255e-15
950.391 3.0398741324890308e-15
950.463 3.2473942046839955e-15
950.533 3.4470317315010118e-15
950.593 3.6214933735904994e-15
950.633 3.737077227754904e-15
950.653 3.794587635359323e-15
950.773 4.139113853409103e-15
951.013 4.82725470262822e-15
951.203 5.3729466960886995e-15
951.393 5.933653061697653e-15
951.583 6.515513605208651e-15
951.773 7.125097114436651e-15
951.868 7.442329348830813e-15
951.963 7.768221658589185e-15
952.058 8.103363894046169e-15
952.153 8.465773301779933e-15
952.248 8.842097815129872e-15
952.343 9.23370481441665e-15
952.438 9.641371829626526e-15
952.533 1.0092607335445808e-14
952.628 1.0560653575795615e-14
952.723 1.1044652586553173e-14
952.818 1.1545140595295216e-14
952.833 1.1625655165941402e-14
952.913 1.206890088086739e-14
952.993 1.2537590594309274e-14
953.073 1.302027584750384e-14
953.233 1.4028651805546816e-14
953.313 1.4555012794866136e-14
953.393 1.5095985985651384e-14
953.473 1.5702057204251794e-14
953.553 1.6335851388569205e-14
953.633 1.6988842520133594e-14
953.713 1.7661513203764018e-14
953.873 1.9063212089339307e-14
953.953 1.9790256249250273e-14
954.033 2.0541269781841118e-14
954.113 2.1325690292462316e-14
954.193 2.212340924698645e-14
954.353 2.375737510742285e-14
954.513 2.543206745231198e-14
954.673 2.713928199972986e-14
954.833 2.8751718322960504e-14
954.993 3.0311872457459855e-14
955.153 3.185754844738747e-14
955.313 3.338097099288074e-14
955.473 3.4881335752574564e-14
955.633 3.626158553508061e-14
955.713 3.690479051336965e-14
955.793 3.7541560760737926e-14
955.953 3.879740574544233e-14
955.988 3.906900501305668e-14
956.193 4.06355938784768e-14
956.398 4.2154458489567855e-14
956.603 4.3608439563874437e-14
956.808 4.49924429394176e-14
957.218 4.760682048977044e-14
957.628 4.9994105661377634e-14
958.038 5.2161537526525044e-14
958.243 5.3150073064228965e-14
958.448 5.407238449620658e-14
958.653 5.492525445699752e-14
958.858 5.57076104914483e-14
959.063 5.642347430638442e-14
959.268 5.706775173982692e-14
959.473 5.76358848573736e-14
959.669 5.810642455595522e-14
959.678 5.812626497629426e-14
959.687 5.814583728284495e-14
959.705 5.81852500097347e-14
959.741 5.826193055320725e-14
959.813 5.840751634028977e-14
959.914 5.859492787835731e-14
959.957 5.866865917015785e-14
960.0 5.873863686892127e-14
960.086 5.886894017006695e-14
960.258 5.908450365591288e-14
960.602 5.933465382045796e-14
960.752 5.936682747506184e-14
960.946 5.933840741349509e-14
961.14 5.923062567057212e-14
961.334 5.903463449127687e-14
961.528 5.875767294789522e-14
961.722 5.83994729266388e-14
961.916 5.795949819993087e-14
962.015 5.77037176458301e-14
962.11 5.743855310913653e-14
962.304 5.6838782564562714e-14
962.593 5.580118220358789e-14
962.882 5.456169215997378e-14
962.889 5.452978661915828e-14
963.171 5.315623968136137e-14
963.453 5.16336214772332e-14
963.735 4.9934584400360474e-14
964.017 4.8113555549781405e-14
964.299 4.618018702187715e-14
964.581 4.415458735077514e-14
964.863 4.205043033968201e-14
965.145 3.988058545043931e-14
965.427 3.766757424126975e-14
965.895 3.3943741834660106e-14
965.991 3.317988565160655e-14
966.087 3.241683380991808e-14
966.279 3.089314315063645e-14
966.663 2.7899116475957935e-14
966.855 2.6437199233515732e-14
967.047 2.5007884627738787e-14
967.239 2.3612861775493798e-14
967.431 2.2258243671155505e-14
967.623 2.0947033189153597e-14
967.815 1.9682957111146364e-14
968.007 1.84677045540005e-14
968.199 1.7303500862159447e-14
968.391 1.6191874284216886e-14
968.583 1.5134326257387663e-14
968.647 1.4793526820996163e-14
968.775 1.4129623458245296e-14
968.807 1.3967387804905279e-14
968.967 1.3179589060550674e-14
969.127 1.2428441471065644e-14
969.287 1.1712282730962323e-14
969.447 1.1030415744390961e-14
969.607 1.0380856469317652e-14
969.767 9.76255926196777e-15
969.854 9.438704617000978e-15
969.927 9.174237176157163e-15
970.0 8.915266067974841e-15
970.146 8.413383867533299e-15
970.292 7.931931937765212e-15
970.438 7.468792179742497e-15
970.573 7.0545295653388275e-15
970.584 7.0214175124756775e-15
970.73 6.588118819098052e-15
970.887 6.1351405736543915e-15
971.044 5.692565143199316e-15
971.358 4.820659103434426e-15
971.657 3.983527422020552e-15
971.672 3.94022704519951e-15
971.687 3.896819422863121e-15
971.717 3.809628818886632e-15
971.778 3.633746173718807e-15
971.899 3.2746613769607757e-15
971.953 3.1097982084947758e-15
972.02 2.9037527621358218e-15
972.087 2.6937928544667302e-15
972.154 2.4796905887673904e-15
972.188 2.367696778229201e-15
972.221 2.2541532699942582e-15
972.254 2.1353440069558155e-15
972.287 2.0150279444267583e-15
972.32 1.8864620206296916e-15
972.336 1.819026040579979e-15
972.353 1.7489330528875637e-15
972.37 1.6771670351557467e-15
972.387 1.5954700827028687e-15
972.404 1.5069630400255046e-15
972.421 1.4144530584878422e-15
972.437 1.3221200320505012e-15
972.452 1.2347926900419457e-15
972.453 1.2276045593758643e-15
972.47 1.1464438344997175e-15
972.487 1.0855417874724742e-15
972.504 1.057620417552082e-15
972.507 1.0551242781823983e-15
972.522 1.0462014513055915e-15
972.537 1.043541762525005e-15
972.552 1.0463784064059128e-15
972.567 1.0554808695209246e-15
972.568 1.05624767495565e-15
972.578 1.0703531413615636e-15
972.582 1.0774903304078555e-15
972.587 1.0861477246341805e-15
972.606 1.1524120474287354e-15
972.612 1.1789258199602083e-15
972.624 1.2508232134483243e-15
972.637 1.323541035128839e-15
972.65 1.3971999362065167e-15
972.662 1.466633363979553e-15
972.675 1.5331979742170774e-15
972.687 1.5979501352452504e-15
972.699 1.6584017511080393e-15
972.712 1.7145876765979318e-15
972.724 1.7661513203764017e-15
972.735 1.8131168126844017e-15
972.736 1.817889238117309e-15
972.761 1.9210942786728747e-15
972.787 2.0199960929251724e-15
972.813 2.1150075761082857e-15
972.865 2.300233986800652e-15
972.916 2.476189022691336e-15
972.949 2.582825919737981e-15
972.968 2.644057746724914e-15
972.987 2.7050000108204118e-15
973.025 2.8258925179944554e-15
973.101 3.0638703165477508e-15
973.118 3.1162865621732233e-15
973.176 3.297665540002543e-15
973.252 3.5268492062974473e-15
973.387 3.924890936504999e-15
973.522 4.314218968590668e-15
973.656 4.6972999494074196e-15
973.665 4.720625848995225e-15
973.904 5.39857837425645e-15
973.926 5.460700339020757e-15
974.045 5.802357739535024e-15
974.187 6.211418946444402e-15
974.329 6.629622833537045e-15
974.47 7.059275179392899e-15
974.611 7.502547705697725e-15
974.753 7.961102717939388e-15
974.894 8.437004692288307e-15
975.036 8.932586218703259e-15
975.177 9.449536414050947e-15
975.245 9.703922776452218e-15
975.295 9.896482099256382e-15
975.319 9.989946565880626e-15
975.393 1.0282539143123992e-14
975.418 1.0382867322730395e-14
975.541 1.088815456828418e-14
975.664 1.1413764838996078e-14
975.787 1.1960287985200492e-14
975.91 1.2529091387218084e-14
976.033 1.3120148233670023e-14
976.156 1.3734986773149988e-14
976.279 1.4374599026674932e-14
976.402 1.5040191506292505e-14
976.525 1.5731120738910624e-14
976.648 1.6447949763484858e-14
976.771 1.7191965526199364e-14
976.894 1.7962819479129262e-14
977.017 1.876145002053384e-14
977.14 1.958809845282262e-14
977.263 2.044222854841887e-14
977.386 2.13247250828242e-14
977.509 2.223599022672116e-14
977.632 2.31759167345944e-14
977.755 2.4144692286095777e-14
978.001 2.6169487615832695e-14
978.247 2.8308794344580553e-14
978.493 3.0560413939274755e-14
978.739 3.2925177552659235e-14
978.979 3.5336324851430963e-14
978.983 3.53773462610509e-14
978.985 3.5397991022755054e-14
978.987 3.54186357844592e-14
978.995 3.5500946717487434e-14
979.011 3.566583669733227e-14
979.043 3.5997225339752136e-14
979.107 3.6665364900359185e-14
979.235 3.8022020669489054e-14
979.491 4.0819519937295593e-14
979.494 4.085303416084129e-14
979.747 4.3724532834236734e-14
980.0 4.6696306064480905e-14
980.253 4.9760042324134476e-14
980.506 5.291279236152542e-14
980.759 5.6150534469828255e-14
981.012 5.946442089402691e-14
981.265 6.28528429513912e-14
981.544 6.666166742891275e-14
981.771 6.981548992145715e-14
981.998 7.301087005119823e-14
982.452 7.946517327852301e-14
982.906 8.602940315907769e-14
983.36 9.2668168672798e-14
983.921 1.0092500089930462e-13
984.268 1.060408800951084e-13
984.615 1.111511289013565e-13
985.231 1.2005170233372892e-13
985.309 1.2116946871742504e-13
985.387 1.2228509019081426e-13
985.543 1.2449917385513728e-13
985.855 1.2889141393614233e-13
986.479 1.3752521414909096e-13
987.103 1.459332625522358e-13
987.727 1.5407105225670812e-13
988.351 1.6191954718353395e-13
988.897 1.68536863594185e-13
988.975 1.694618561640463e-13
989.042 1.7024984258805276e-13
989.053 1.7038202268571698e-13
989.209 1.7219420378128e-13
989.521 1.7575368243562153e-13
990.0 1.8104598050416985e-13
990.479 1.8604710699855316e-13
990.958 1.908297207554185e-13
991.916 1.997265405947538e-13
992.875 2.0771525903289484e-13
993.572 2.12956079254077e-13
993.833 2.1479373115953471e-13
994.094 2.1656140536622905e-13
994.616 2.1958733758172307e-13
995.138 2.2232504747472409e-13
995.661 2.2477292636250188e-13
996.183 2.2692561196928918e-13
996.268 2.2724708040153953e-13
996.705 2.2878149561235576e-13
997.227 2.303365555848762e-13
997.246 2.303864247495122e-13
997.716 2.315167924812615e-13
998.187 2.3239620570710065e-13
998.256 2.324884368502984e-13
998.658 2.3291500588758804e-13
999.128 2.3317507626230266e-13
999.93 2.3297828074164233e-13
999.987 2.3293431008035036e-13
1000.0 2.329238536426041e-13
1000.07 2.3286218747128004e-13
1000.21 2.3271847848071606e-13
1000.49 2.32357597321576e-13
1000.993 2.314623653822233e-13
1001.496 2.3017488297049176e-13
1001.999 2.2856110607831925e-13
1002.502 2.2661433186099673e-13
1003.005 2.2433000238412195e-13
1003.508 2.2170248725813919e-13
1004.011 2.1872749666243461e-13
1004.514 2.1539805963851076e-13
1004.538 2.1523048852078226e-13
1005.017 2.1171498052773267e-13
1005.496 2.0787559107833746e-13
1005.975 2.0360990070544097e-13
1006.454 1.990356113621357e-13
1006.933 1.9414977379674958e-13
1007.412 1.8895909085399182e-13
1007.891 1.8347401897160862e-13
1008.37 1.7769965231157896e-13
1008.656 1.7411845644037982e-13
1008.849 1.7165073713226294e-13
1009.328 1.653543529262855e-13
1010.0 1.5612507198937687e-13
1010.672 1.46386642968362e-13
1011.162 1.3909287546966457e-13
1011.344 1.3635114386983807e-13
1012.016 1.2610839281290752e-13
1012.87 1.1294400580415718e-13
1013.086 1.096116195285613e-13
1013.832 9.820874010937286e-14
1014.578 8.705708330988298e-14
1014.951 8.16218805921358e-14
1015.324 7.63121551273437e-14
1015.697 7.113675467052276e-14
1016.07 6.611176604897493e-14
1016.443 6.125300797621374e-14
1016.816 5.6582733896673576e-14
1017.189 5.210764665506356e-14
1017.562 4.7836325892611387e-14
1017.748 4.5779088794482235e-14
1017.935 4.378110484358188e-14
1018.121 4.183942478823829e-14
1018.308 3.9952976173298015e-14
1018.494 3.812095465739596e-14
1018.681 3.634336024053211e-14
1018.838 3.489152407653246e-14
1018.867 3.4622874060590136e-14
1019.054 3.295815554862821e-14
1019.27 3.1101735677984875e-14
1019.486 2.9319851440507184e-14
1019.702 2.7614111518925316e-14
1019.836 2.659273204214661e-14
1019.918 2.598175434121911e-14
1020.0 2.5385898257955427e-14
1020.164 2.4225743084318696e-14
1020.328 2.3105939035830982e-14
1020.492 2.2028470154526195e-14
1020.656 2.0990601679763007e-14
1020.82 1.9993888671513935e-14
1020.984 1.9037258674625517e-14
1021.148 1.8117816060183408e-14
1021.312 1.7236204301279683e-14
1021.476 1.639043935588044e-14
1021.64 1.558333641876351e-14
1021.804 1.4809881762086466e-14
1021.968 1.406999495171279e-14
1022.132 1.3363086137308082e-14
1022.296 1.2688672714053282e-14
1022.45 1.2080402962388274e-14
1022.46 1.2041767765484793e-14
1022.47 1.2003239814096659e-14
1022.49 1.1926505647866427e-14
1022.53 1.17741633933171e-14
1022.61 1.1473688270695787e-14
1022.77 1.0891318310986894e-14
1022.93 1.0330880059166306e-14
1023.09 9.792963365568429e-15
1023.25 9.275905924705392e-15
1023.41 8.775230236311495e-15
1023.57 8.289890656612108e-15
1023.673 7.983704710298607e-15
1023.73 7.815892290160587e-15
1023.732 7.810047409574217e-15
1023.787 7.649849421025777e-15
1023.901 7.321034670974222e-15
1023.946 7.191991504633864e-15
1024.07 6.839529118448463e-15
1024.177 6.537847483779504e-15
1024.408 5.884722295320933e-15
1024.47 5.7078208177573185e-15
1024.639 5.2227493518462974e-15
1024.67 5.1324486279247675e-15
1024.77 4.837952442784006e-15
1024.87 4.537021526722471e-15
1024.97 4.2286638587232086e-15
1025.07 3.911538869844392e-15
1025.17 3.5840915001135005e-15
1025.265 3.2621940858017757e-15
1025.27 3.2449543692098686e-15
1025.275 3.2276878412391248e-15
1025.285 3.1930743511611276e-15
1025.305 3.123445200322584e-15
1025.345 2.9822832907481026e-15
1025.38 2.852784330967524e-15
1025.385 2.8339091202665866e-15
1025.425 2.678175226294435e-15
1025.447 2.5883597883298467e-15
1025.47 2.4952974923881516e-15
1025.481 2.447970046465858e-15
1025.493 2.398712181267332e-15
1025.504 2.339858523583202e-15
1025.505 2.3333272716986164e-15
1025.515 2.2816295710259637e-15
1025.521 2.249598016729927e-15
1025.538 2.1642815281341135e-15
1025.554 2.078450261064638e-15
1025.57 1.9707194597614614e-15
1025.585 1.8618035955137087e-15
1025.586 1.8525161338847245e-15
1025.602 1.7310016027216731e-15
1025.62 1.605854129726268e-15
1025.638 1.4846184369031164e-15
1025.64 1.4681535691595858e-15
1025.655 1.409165854581273e-15
1025.67 1.3758527163768486e-15
1025.685 1.364473967198613e-15
1025.7 1.3603879130639215e-15
1025.71 1.359613064215545e-15
1025.715 1.3594441525288748e-15
1025.718 1.3593905297712016e-15
1025.72 1.359379805219667e-15
1025.722 1.3593824863575507e-15
1025.73 1.3595701660094066e-15
1025.734 1.3597712513506807e-15
1025.746 1.360945589743722e-15
1025.758 1.3644471558197766e-15
1025.77 1.371385940662678e-15
1025.782 1.3928538116971106e-15
1025.794 1.4250542776798177e-15
1025.806 1.482478888871959e-15
1025.812 1.523897106898675e-15
1025.816 1.5521134019862696e-15
1025.818 1.5661518399450916e-15
1025.82 1.5801098437674042e-15
1025.828 1.6341991194322777e-15
1025.844 1.7516463644258233e-15
1025.85 1.7966921620091258e-15
1025.86 1.8715441694450305e-15
1025.87 1.9459403834407136e-15
1025.88 2.0137544039320216e-15
1025.89 2.079914162349114e-15
1025.9 2.133984670048802e-15
1025.91 2.1861435264374436e-15
1025.93 2.290844641932089e-15
1025.95 2.39545459873869e-15
1025.965 2.4624884081058544e-15
1025.97 2.4836479482836667e-15
1025.975 2.5048316187024317e-15
1025.985 2.5470380912669426e-15
1026.005 2.628343597588807e-15
1026.045 2.788115285213744e-15
1026.08 2.9215287063044602e-15
1026.085 2.940457539763071e-15
1026.125 3.084273775842372e-15
1026.17 3.2425949678722512e-15
1026.26 3.5520519024038125e-15
1026.35 3.852124854342578e-15
1026.44 4.14388627884201e-15
1026.49 4.302529207417928e-15
1026.53 4.428060083130697e-15
1026.57 4.552572126447675e-15
1026.65 4.797815808665678e-15
1026.81 5.2768010915808e-15
1026.97 5.744525595384568e-15
1027.21 6.439074364145622e-15
1027.29 6.669732656276536e-15
1027.37 6.900310514270942e-15
1027.53 7.366292278450333e-15
1027.69 7.839432680779085e-15
1027.85 8.32353893705199e-15
1028.01 8.819308143118798e-15
1028.17 9.330279400985934e-15
1028.33 9.85808820476243e-15
1028.49 1.0406488147485403e-14
1028.65 1.0978401669448037e-14
1028.81 1.157246139032967e-14
1028.97 1.2191375259392791e-14
1029.13 1.2836296165927374e-14
1029.29 1.3507921205783172e-14
1029.45 1.4210245274406828e-14
1029.61 1.4945064734180394e-14
1029.77 1.571213828269434e-14
1029.86 1.6157770210336783e-14
1029.93 1.6511626788221686e-14
1030.0 1.6872373890467582e-14
1030.14 1.761620197353023e-14
1030.28 1.838614433957969e-14
1030.42 1.9184050973755676e-14
1030.56 2.000981463054285e-14
1030.7 2.086303313925866e-14
1030.84 2.1747996320516953e-14
1030.98 2.2662210716085935e-14
1031.12 2.3605729948723273e-14
1031.26 2.4580725740114732e-14
1031.4 2.558518723684757e-14
1031.54 2.6621044858198017e-14
1031.68 2.769534999680009e-14
1031.82 2.880024691865468e-14
1032.03 3.0517247619347895e-14
1032.1 3.110575738481036e-14
1032.17 3.170204245013543e-14
1032.31 3.2917670366585004e-14
1032.59 3.5447055846025954e-14
1032.87 3.810325914736383e-14
1033.15 4.08857440430219e-14
1033.43 4.3792097508904864e-14
1033.71 4.682446445531966e-14
1033.99 4.998820715803359e-14
1034.27 5.3270188041416744e-14
1034.29 5.3509077426850483e-14
1034.55 5.666960276410403e-14
1034.56 5.6793203220540563e-14
1034.83 6.01813571641165e-14
1035.1 6.36764885092503e-14
1035.37 6.727082195607936e-14
1035.64 7.095792277368292e-14
1035.91 7.473242868629366e-14
1036.45 8.25256921727162e-14
1036.99 9.062487349166385e-14
1037.53 9.897152383727296e-14
1037.57 9.95983738744717e-14
1038.07 1.0752167254825155e-13
1038.57 1.1559484682972775e-13
1039.14 1.2492467043727347e-13
1039.57 1.3200823672589229e-13
1040.0 1.3910788984181303e-13
1040.86 1.532653703226695e-13
1042.083 1.7303876221463158e-13
1042.58 1.8087572824855772e-13
1043.077 1.8857381134011045e-13
1044.071 2.0347584381125817e-13
1045.065 2.1760838970979667e-13
1045.963 2.2967029282078773e-13
1046.058 2.3091273211607384e-13
1046.154 2.321473961114974e-13
1046.345 2.345909851786613e-13
1046.727 2.393803017802358e-13
1047.492 2.485693656488896e-13
1048.042 2.548560977584859e-13
1048.257 2.57231585923405e-13
1049.021 2.653795639518352e-13
1050.0 2.750874280009764e-13
1050.588 2.8053281904268146e-13
1050.979 2.840022114641322e-13
1051.37 2.873509526808184e-13
1052.152 2.9370256832719915e-13
1052.935 2.9960911508489303e-13
1053.717 3.0510276660850393e-13
1054.499 3.101996097253337e-13
1054.878 3.125295185462307e-13
1055.281 3.1491841240056806e-13
1055.685 3.1721614756686114e-13
1056.492 3.215381418353144e-13
1058.107 3.29184747079501e-13
1059.445 3.3461673243178777e-13
1059.722 3.3565165165487895e-13
1060.0 3.366543972233662e-13
1060.555 3.385767730859475e-13
1061.666 3.420837014377694e-13
1062.773 3.451777345555083e-13
1063.886 3.4791785747260457e-13
1065.0 3.503228381542439e-13
1067.227 3.5424534287803245e-13
1068.908 3.5653503463067456e-13
1069.454 3.5716778317121736e-13
1070.0 3.577522712298543e-13
1071.092 3.5878182817717817e-13
1073.067 3.6021891808281773e-13
1073.276 3.603422504254659e-13
1073.485 3.6046022049234674e-13
1073.903 3.6068007379880655e-13
1074.74 3.610607953782857e-13
1075.858 3.614549226471831e-13
1076.163 3.6154071905946006e-13
1076.414 3.616050663686678e-13
1076.97 3.6172571757343233e-13
1078.082 3.6188926698433534e-13
1080.0 3.619402086041248e-13
1082.674 3.6159166067924953e-13
1083.837 3.6131014120146566e-13
1084.652 3.6106883879193664e-13
1085.0 3.609562310008231e-13
1087.326 3.600660932234493e-13
1090.0 3.587737847635272e-13
1095.0 3.557548235065307e-13
1096.154 3.5496656896873585e-13
1100.0 3.5214333077724624e-13
1103.846 3.490707467625766e-13
1105.384 3.477838005784218e-13
1107.692 3.4579975854451643e-13
1110.0 3.43754050339287e-13
1114.232 3.398717626837533e-13
1114.608 3.395205336209944e-13
1114.616 3.395124902073434e-13
1115.0 3.3915053659304985e-13
1115.768 3.3842662936446277e-13
1117.304 3.36960046942103e-13
1119.304 3.350242653901035e-13
1120.0 3.3434593750553855e-13
1120.696 3.336622473452063e-13
1122.088 3.3228414247300716e-13
1124.396 3.299730016172958e-13
1124.872 3.2949039679823777e-13
1125.348 3.290077919791797e-13
1126.3 3.280372200652963e-13
1126.408 3.2792461227418274e-13
1128.204 3.260719459965765e-13
1130.0 3.2419783061590107e-13
1132.184 3.21884008622306e-13
1133.592 3.203745279938078e-13
1135.0 3.1884627940012393e-13
1135.632 3.181572269640244e-13
1137.816 3.1574152173085045e-13
1140.0 3.13282918291538e-13
1143.736 3.089555617473174e-13
1144.368 3.082075242777774e-13
1145.0 3.074541245324701e-13
1146.264 3.059285570766699e-13
1147.584 3.0431183093282545e-13
1148.792 3.0280503144221085e-13
1149.832 3.0149127387921943e-13
1150.0 3.01276782848527e-13
1152.416 2.9813180811099865e-13
